en,counts
0.00879912,619795
0.01879812,553881
0.02879712,425505
0.03879612,271266
0.04879512,119423
0.05879412,0
0.06879312,0
0.07879212,0
0.08879112,0
0.09879012,0
0.10878912,0
0.11878812,0
0.12878712,0
0.13878612,0
0.14878512,0
0.15878412,0
0.16878312,0
0.17878212,6
0.18878112,3
0.19878012,0
0.20877912,2
0.21877812,0
0.22877712,9
0.23877612,2
0.24877512,6
0.25877412,7
0.26877312,2
0.27877212,0
0.28877112,2
0.29877012,6
0.30876912,0
0.31876812,0
0.32876712,2
0.33876612,0
0.34876512,0
0.35876412,0
0.36876312,369
0.37876212,350
0.38876112,363
0.39876012,342
0.40875912,339
0.41875812,331
0.42875712,365
0.43875612,325
0.44875512,331
0.45875412,305
0.46875312,337
0.47875212,317
0.48875112,339
0.49875012,334
0.50874912,327
0.51874812,345
0.52874712,321
0.53874612,312
0.54874512,309
0.55874412,290
0.56874312,269
0.57874212,287
0.58874112,300
0.59874012,300
0.60873912,251
0.61873812,269
0.62873712,245
0.63873612,241
0.64873512,220
0.65873412,240
0.66873312,222
0.67873212,256
0.68873112,208
0.69873012,227
0.70872912,224
0.71872812,224
0.72872712,256
0.73872612,186
0.74872512,237
0.75872412,217
0.76872312,219
0.77872212,243
0.78872112,235
0.79872012,190
0.80871912,210
0.81871812,231
0.82871712,200
0.83871612,184
0.84871512,206
0.85871412,199
0.86871312,196
0.87871212,171
0.88871112,180
0.89871012,222
0.90870912,127
0.91870812,191
0.92870712,114
0.93870612,221
0.94870512,152
0.95870412,170
0.96870312,151
0.97870212,152
0.98870112,223
0.99870012,213
1.00869912,196
1.01869812,149
1.02869712,144
1.03869612,156
1.04869512,142
1.05869412,166
1.06869312,171
1.07869212,135
1.08869112,127
1.09869012,159
1.10868912,152
1.11868812,135
1.12868712,139
1.13868612,120
1.14868512,119
1.15868412,120
1.16868312,100
1.17868212,144
1.18868112,118
1.19868012,97
1.20867912,103
1.21867812,105
1.22867712,103
1.23867612,97
1.24867512,92
1.25867412,88
1.26867312,91
1.27867212,84
1.28867112,89
1.29867012,94
1.30866912,78
1.31866812,84
1.32866712,77
1.33866612,58
1.34866512,71
1.35866412,91
1.36866312,87
1.37866212,73
1.38866112,77
1.39866012,65
1.40865912,53
1.41865812,50
1.42865712,59
1.43865612,78
1.44865512,99
1.45865412,80
1.46865312,66
1.47865212,74
1.48865112,61
1.49865012,90
1.50864912,95
1.51864812,87
1.52864712,50
1.53864612,39
1.54864512,34
1.55864412,53
1.56864312,35
1.57864212,37
1.58864112,12
1.59864012,21
1.60863912,20
1.61863812,0
1.62863712,0
1.63863612,14
1.64863512,4
1.65863412,0
1.66863312,33
1.67863212,21
1.68863112,25
1.69863012,50
1.70862912,52
1.71862812,34
1.72862712,72
1.73862612,39
1.74862512,54
1.75862412,36
1.76862312,59
1.77862212,41
1.78862112,61
1.79862012,28
1.80861912,11
1.81861812,22
1.82861712,25
1.83861612,33
1.84861512,29
1.85861412,29
1.86861312,27
1.87861212,5
1.88861112,22
1.89861012,19
1.90860912,11
1.91860812,0
1.92860712,22
1.93860612,3
1.94860512,10
1.95860412,36
1.96860312,14
1.97860212,23
1.98860112,9
1.99860012,5
2.00859912,33
2.01859812,25
2.02859712,18
2.03859612,19
2.04859512,45
2.05859412,20
2.06859312,13
2.07859212,23
2.08859112,0
2.09859012,10
2.10858912,23
2.11858812,18
2.12858712,24
2.13858612,16
2.14858512,0
2.15858412,1
2.16858312,6
2.17858212,0
2.18858112,16
2.19858012,5
2.20857912,15
2.21857812,0
2.22857712,0
2.23857612,7
2.24857512,12
2.25857412,2
2.26857312,10
2.27857212,21
2.28857112,25
2.29857012,44
2.30856912,30
2.31856812,39
2.32856712,52
2.33856612,60
2.34856512,60
2.35856412,65
2.36856312,64
2.37856212,63
2.38856112,31
2.39856012,14
2.40855912,11
2.41855812,29
2.42855712,25
2.43855612,18
2.44855512,2
2.45855412,5
2.46855312,0
2.47855212,0
2.48855112,0
2.49855012,37
2.50854912,125
2.51854812,244
2.52854712,444
2.53854612,736
2.54854512,1067
2.55854412,1553
2.56854312,2086
2.57854212,2720
2.58854112,3541
2.59854012,4490
2.60853912,5552
2.61853812,6758
2.62853712,8038
2.63853612,9485
2.64853512,11037
2.65853412,12334
2.66853312,13447
2.67853212,14398
2.68853112,14927
2.69853012,15061
2.70852912,14536
2.71852812,13567
2.72852712,12341
2.73852612,10982
2.74852512,9795
2.75852412,8758
2.76852312,7894
2.77852212,7430
2.78852112,7357
2.79852012,7491
2.80851912,7781
2.81851812,7989
2.82851712,8097
2.83851612,8101
2.84851512,7868
2.85851412,7390
2.86851312,6928
2.87851212,6361
2.88851112,5767
2.89851012,5251
2.90850912,4740
2.91850812,4243
2.92850712,3869
2.93850612,3710
2.94850512,3515
2.95850412,3377
2.96850312,3188
2.97850212,3042
2.98850112,2940
2.99850012,2714
3.00849912,2418
3.01849812,2157
3.02849712,1831
3.03849612,1638
3.04849512,1421
3.05849412,1326
3.06849312,1259
3.07849212,1297
3.08849112,1389
3.09849012,1526
3.10848912,1716
3.11848812,1828
3.12848712,1887
3.13848612,1968
3.14848512,1948
3.15848412,1876
3.16848312,1698
3.17848212,1478
3.18848112,1269
3.19848012,1029
3.20847912,824
3.21847812,633
3.22847712,476
3.23847612,416
3.24847512,370
3.25847412,407
3.26847312,389
3.27847212,465
3.28847112,540
3.29847012,599
3.30846912,735
3.31846812,746
3.32846712,753
3.33846612,763
3.34846512,731
3.35846412,753
3.36846312,749
3.37846212,633
3.38846112,509
3.39846012,438
3.40845912,305
3.41845812,226
3.42845712,173
3.43845612,78
3.44845512,86
3.45845412,56
3.46845312,21
3.47845212,22
3.48845112,50
3.49845012,66
3.50844912,63
3.51844812,72
3.52844712,41
3.53844612,47
3.54844512,66
3.55844412,50
3.56844312,60
3.57844212,89
3.58844112,91
3.59844012,102
3.60843912,144
3.61843812,218
3.62843712,270
3.63843612,331
3.64843512,431
3.65843412,532
3.66843312,638
3.67843212,702
3.68843112,709
3.69843012,707
3.70842912,709
3.71842812,651
3.72842712,573
3.73842612,495
3.74842512,421
3.75842412,318
3.76842312,214
3.77842212,134
3.78842112,65
3.79842012,13
3.80841912,19
3.81841812,1
3.82841712,0
3.83841612,2
3.84841512,4
3.85841412,0
3.86841312,0
3.87841212,4
3.88841112,4
3.89841012,0
3.90840912,0
3.91840812,44
3.92840712,60
3.93840612,62
3.94840512,50
3.95840412,99
3.96840312,135
3.97840212,109
3.98840112,116
3.99840012,161
4.00839912,152
4.01839812,167
4.02839712,134
4.03839612,125
4.04839512,114
4.05839412,94
4.06839312,91
4.07839212,60
4.08839112,38
4.09839012,46
4.10838912,45
4.11838812,24
4.12838712,0
4.13838612,0
4.14838512,15
4.15838412,20
4.16838312,24
4.17838212,47
4.18838112,72
4.19838012,19
4.20837912,8
4.21837812,0
4.22837712,7
4.23837612,6
4.24837512,0
4.25837412,0
4.26837312,6
4.27837212,34
4.28837112,29
4.29837012,11
4.30836912,13
4.31836812,26
4.32836712,46
4.33836612,63
4.34836512,45
4.35836412,32
4.36836312,0
4.37836212,0
4.38836112,37
4.39836012,44
4.40835912,57
4.41835812,84
4.42835712,102
4.43835612,68
4.44835512,120
4.45835412,127
4.46835312,149
4.47835212,159
4.48835112,149
4.49835012,140
4.50834912,163
4.51834812,227
4.52834712,254
4.53834612,225
4.54834512,205
4.55834412,116
4.56834312,113
4.57834212,97
4.58834112,96
4.59834012,51
4.60833912,67
4.61833812,16
4.62833712,0
4.63833612,5
4.64833512,28
4.65833412,12
4.66833312,72
4.67833212,74
4.68833112,0
4.69833012,52
4.70832912,0
4.71832812,32
4.72832712,28
4.73832612,0
4.74832512,0
4.75832412,37
4.76832312,16
4.77832212,18
4.78832112,57
4.79832012,171
4.80831912,378
4.81831812,507
4.82831712,838
4.83831612,1331
4.84831512,1811
4.85831412,2497
4.86831312,3265
4.87831212,4154
4.88831112,5251
4.89831012,6304
4.90830912,7338
4.91830812,8386
4.92830712,9293
4.93830612,9966
4.94830512,10139
4.95830412,10195
4.96830312,9888
4.97830212,9073
4.98830112,8281
4.99830012,7427
5.00829912,6341
5.01829812,5138
5.02829712,4041
5.03829612,3112
5.04829512,2355
5.05829412,1710
5.06829312,1146
5.07829212,772
5.08829112,541
5.09829012,387
5.10828912,207
5.11828812,85
5.12828712,35
5.13828612,14
5.14828512,16
5.15828412,15
5.16828312,0
5.17828212,0
5.18828112,0
5.19828012,32
5.20827912,60
5.21827812,78
5.22827712,151
5.23827612,137
5.24827512,189
5.25827412,428
5.26827312,645
5.27827212,842
5.28827112,1255
5.29827012,1732
5.30826912,2377
5.31826812,3242
5.32826712,4154
5.33826612,5295
5.34826512,6627
5.35826412,8022
5.36826312,9244
5.37826212,10522
5.38826112,11583
5.39826012,12377
5.40825912,12908
5.41825812,13014
5.42825712,12654
5.43825612,12035
5.44825512,11122
5.45825412,10066
5.46825312,8743
5.47825212,7451
5.48825112,6156
5.49825012,4939
5.50824912,3829
5.51824812,2880
5.52824712,2143
5.53824612,1534
5.54824512,1118
5.55824412,806
5.56824312,537
5.57824212,326
5.58824112,264
5.59824012,202
5.60823912,143
5.61823812,81
5.62823712,39
5.63823612,89
5.64823512,101
5.65823412,89
5.66823312,102
5.67823212,131
5.68823112,191
5.69823012,201
5.70822912,198
5.71822812,285
5.72822712,352
5.73822612,419
5.74822512,608
5.75822412,928
5.76822312,1356
5.77822212,1897
5.78822112,2424
5.79822012,3254
5.80821912,4229
5.81821812,5311
5.82821712,6464
5.83821612,7826
5.84821512,9148
5.85821412,10258
5.86821312,11350
5.87821212,12363
5.88821112,12944
5.89821012,13151
5.90820912,13098
5.91820812,12776
5.92820712,12202
5.93820612,11085
5.94820512,10024
5.95820412,8809
5.96820312,7585
5.97820212,6333
5.98820112,5204
5.99820012,4217
6.00819912,3241
6.01819812,2418
6.02819712,1836
6.03819612,1374
6.04819512,1004
6.05819412,660
6.06819312,489
6.07819212,333
6.08819112,254
6.09819012,192
6.10818912,168
6.11818812,229
6.12818712,146
6.13818612,125
6.14818512,88
6.15818412,87
6.16818312,127
6.17818212,174
6.18818112,230
6.19818012,256
6.20817912,218
6.21817812,187
6.22817712,308
6.23817612,534
6.24817512,771
6.25817412,1079
6.26817312,1443
6.27817212,1843
6.28817112,2437
6.29817012,3221
6.30816912,4160
6.31816812,5203
6.32816712,6237
6.33816612,7391
6.34816512,8757
6.35816412,9950
6.36816312,10997
6.37816212,11911
6.38816112,12604
6.39816012,12881
6.40815912,12960
6.41815812,12739
6.42815712,12214
6.43815612,11450
6.44815512,10590
6.45815412,9492
6.46815312,8485
6.47815212,7403
6.48815112,6285
6.49815012,5327
6.50814912,4255
6.51814812,3420
6.52814712,2773
6.53814612,2178
6.54814512,1704
6.55814412,1400
6.56814312,1036
6.57814212,830
6.58814112,690
6.59814012,404
6.60813912,270
6.61813812,239
6.62813712,111
6.63813612,21
6.64813512,0
6.65813412,19
6.66813312,0
6.67813212,47
6.68813112,72
6.69813012,0
6.70812912,41
6.71812812,83
6.72812712,9
6.73812612,24
6.74812512,191
6.75812412,350
6.76812312,493
6.77812212,753
6.78812112,1078
6.79812012,1538
6.80811912,2043
6.81811812,2694
6.82811712,3391
6.83811612,4151
6.84811512,5252
6.85811412,6472
6.86811312,7542
6.87811212,8548
6.88811112,9525
6.89811012,10235
6.90810912,10894
6.91810812,11516
6.92810712,11739
6.93810612,11717
6.94810512,11290
6.95810412,10574
6.96810312,9812
6.97810212,8932
6.98810112,7971
6.99810012,7088
7.00809912,6178
7.01809812,5352
7.02809712,4649
7.03809612,4080
7.04809512,3554
7.05809412,2887
7.06809312,2446
7.07809212,2138
7.08809112,1798
7.09809012,1491
7.10808912,1195
7.11808812,1005
7.12808712,755
7.13808612,619
7.14808512,528
7.15808412,333
7.16808312,151
7.17808212,136
7.18808112,72
7.19808012,2
7.20807912,0
7.21807812,19
7.22807712,128
7.23807612,77
7.24807512,0
7.25807412,0
7.26807312,20
7.27807212,26
7.28807112,86
7.29807012,256
7.30806912,369
7.31806812,418
7.32806712,709
7.33806612,1105
7.34806512,1480
7.35806412,2188
7.36806312,2931
7.37806212,3753
7.38806112,4517
7.39806012,5403
7.40805912,6318
7.41805812,7394
7.42805712,8524
7.43805612,9280
7.44805512,9955
7.45805412,10536
7.46805312,10681
7.47805212,10644
7.48805112,10576
7.49805012,10098
7.50804912,9674
7.51804812,8909
7.52804712,7966
7.53804612,7063
7.54804512,6171
7.55804412,5322
7.56804312,4573
7.57804212,3831
7.58804112,3233
7.59804012,2789
7.60803912,2427
7.61803812,2170
7.62803712,2028
7.63803612,1945
7.64803512,1711
7.65803412,1464
7.66803312,1276
7.67803212,1192
7.68803112,1111
7.69803012,1012
7.70802912,836
7.71802812,601
7.72802712,523
7.73802612,411
7.74802512,266
7.75802412,181
7.76802312,58
7.77802212,29
7.78802112,30
7.79802012,0
7.80801912,23
7.81801812,20
7.82801712,0
7.83801612,28
7.84801512,0
7.85801412,59
7.86801312,247
7.87801212,318
7.88801112,566
7.89801012,898
7.90800912,1207
7.91800812,1571
7.92800712,2091
7.93800612,2630
7.94800512,3322
7.95800412,4226
7.96800312,4961
7.97800212,5816
7.98800112,6641
7.99800012,7214
8.00799912,8017
8.01799812,8702
8.02799712,9035
8.03799612,9246
8.04799512,9183
8.05799412,9005
8.06799312,8650
8.07799212,8098
8.08799112,7373
8.09799012,6617
8.10798912,5831
8.11798812,5050
8.12798712,4381
8.13798612,3778
8.14798512,3108
8.15798412,2577
8.16798312,2257
8.17798212,2062
8.18798112,1798
8.19798012,1609
8.20797912,1471
8.21797812,1448
8.22797712,1458
8.23797612,1466
8.24797512,1483
8.25797412,1513
8.26797312,1549
8.27797212,1455
8.28797112,1401
8.29797012,1315
8.30796912,1143
8.31796812,1105
8.32796712,981
8.33796612,835
8.34796512,837
8.35796412,722
8.36796312,587
8.37796212,538
8.38796112,391
8.39796012,308
8.40795912,294
8.41795812,342
8.42795712,342
8.43795612,388
8.44795512,576
8.45795412,566
8.46795312,611
8.47795212,837
8.48795112,1175
8.49795012,1598
8.50794912,1859
8.51794812,2346
8.52794712,3154
8.53794612,3867
8.54794512,4565
8.55794412,5299
8.56794312,6054
8.57794212,6901
8.58794112,7714
8.59794012,8330
8.60793912,8784
8.61793812,9253
8.62793712,9479
8.63793612,9476
8.64793512,9217
8.65793412,8728
8.66793312,8278
8.67793212,7566
8.68793112,6825
8.69793012,6124
8.70792912,5297
8.71792812,4389
8.72792712,3593
8.73792612,2999
8.74792512,2422
8.75792412,1978
8.76792312,1584
8.77792212,1400
8.78792112,1297
8.79792012,1023
8.80791912,856
8.81791812,776
8.82791712,819
8.83791612,966
8.84791512,1032
8.85791412,1060
8.86791312,1074
8.87791212,1115
8.88791112,1216
8.89791012,1264
8.90790912,1246
8.91790812,1271
8.92790712,1183
8.93790612,1054
8.94790512,901
8.95790412,878
8.96790312,928
8.97790212,759
8.98790112,659
8.99790012,554
9.00789912,502
9.01789812,482
9.02789712,378
9.03789612,336
9.04789512,318
9.05789412,295
9.06789312,164
9.07789212,78
9.08789112,149
9.09789012,171
9.10788912,179
9.11788812,173
9.12788712,180
9.13788612,155
9.14788512,79
9.15788412,108
9.16788312,102
9.17788212,115
9.18788112,164
9.19788012,224
9.20787912,275
9.21787812,215
9.22787712,166
9.23787612,214
9.24787512,270
9.25787412,233
9.26787312,204
9.27787212,252
9.28787112,263
9.29787012,331
9.30786912,397
9.31786812,336
9.32786712,260
9.33786612,210
9.34786512,323
9.35786412,354
9.36786312,242
9.37786212,234
9.38786112,272
9.39786012,357
9.40785912,383
9.41785812,444
9.42785712,456
9.43785612,372
9.44785512,549
9.45785412,648
9.46785312,740
9.47785212,867
9.48785112,925
9.49785012,1018
9.50784912,1173
9.51784812,1340
9.52784712,1346
9.53784612,1369
9.54784512,1384
9.55784412,1417
9.56784312,1474
9.57784212,1432
9.58784112,1413
9.59784012,1326
9.60783912,1291
9.61783812,1382
9.62783712,1250
9.63783612,1084
9.64783512,1012
9.65783412,939
9.66783312,828
9.67783212,738
9.68783112,553
9.69783012,370
9.70782912,390
9.71782812,408
9.72782712,368
9.73782612,183
9.74782512,56
9.75782412,237
9.76782312,304
9.77782212,194
9.78782112,261
9.79782012,191
9.80781912,27
9.81781812,78
9.82781712,196
9.83781612,247
9.84781512,237
9.85781412,119
9.86781312,128
9.87781212,182
9.88781112,207
9.89781012,263
9.90780912,161
9.91780812,129
9.92780712,182
9.93780612,211
9.94780512,273
9.95780412,228
9.96780312,110
9.97780212,157
9.98780112,216
9.99780012,163
10.00779912,227
10.01779812,238
10.02779712,261
10.03779612,272
10.04779512,208
10.05779412,242
10.06779312,265
10.07779212,247
10.08779112,210
10.09779012,214
10.10778912,255
10.11778812,252
10.12778712,275
10.13778612,310
10.14778512,292
10.15778412,222
10.16778312,246
10.17778212,234
10.18778112,306
10.19778012,370
10.20777912,296
10.21777812,256
10.22777712,236
10.23777612,222
10.24777512,241
10.25777412,269
10.26777312,259
10.27777212,247
10.28777112,273
10.29777012,284
10.30776912,304
10.31776812,282
10.32776712,272
10.33776612,259
10.34776512,269
10.35776412,228
10.36776312,171
10.37776212,260
10.38776112,276
10.39776012,276
10.40775912,274
10.41775812,228
10.42775712,226
10.43775612,315
10.44775512,298
10.45775412,222
10.46775312,378
10.47775212,356
10.48775112,212
10.49775012,266
10.50774912,267
10.51774812,226
10.52774712,238
10.53774612,176
10.54774512,241
10.55774412,325
10.56774312,195
10.57774212,240
10.58774112,411
10.59774012,391
10.60773912,233
10.61773812,226
10.62773712,295
10.63773612,269
10.64773512,244
10.65773412,272
10.66773312,364
10.67773212,279
10.68773112,306
10.69773012,347
10.70772912,353
10.71772812,322
10.72772712,268
10.73772612,257
10.74772512,377
10.75772412,356
10.76772312,428
10.77772212,428
10.78772112,305
10.79772012,260
10.80771912,219
10.81771812,168
10.82771712,280
10.83771612,374
10.84771512,304
10.85771412,364
10.86771312,359
10.87771212,366
10.88771112,295
10.89771012,286
10.90770912,246
10.91770812,263
10.92770712,299
10.93770612,187
10.94770512,299
10.95770412,320
10.96770312,389
10.97770212,410
10.98770112,428
10.99770012,340
11.00769912,281
11.01769812,312
11.02769712,276
11.03769612,223
11.04769512,223
11.05769412,229
11.06769312,183
11.07769212,137
11.08769112,299
11.09769012,314
11.10768912,260
11.11768812,233
11.12768712,223
11.13768612,264
11.14768512,332
11.15768412,322
11.16768312,301
11.17768212,200
11.18768112,156
11.19768012,226
11.20767912,254
11.21767812,283
11.22767712,249
11.23767612,181
11.24767512,310
11.25767412,356
11.26767312,282
11.27767212,253
11.28767112,280
11.29767012,219
11.30766912,217
11.31766812,168
11.32766712,245
11.33766612,284
11.34766512,325
11.35766412,298
11.36766312,216
11.37766212,155
11.38766112,201
11.39766012,196
11.40765912,175
11.41765812,165
11.42765712,189
11.43765612,149
11.44765512,224
11.45765412,252
11.46765312,177
11.47765212,96
11.48765112,98
11.49765012,157
11.50764912,104
11.51764812,169
11.52764712,285
11.53764612,256
11.54764512,215
11.55764412,169
11.56764312,206
11.57764212,186
11.58764112,219
11.59764012,144
11.60763912,107
11.61763812,108
11.62763712,202
11.63763612,170
11.64763512,124
11.65763412,242
11.66763312,166
11.67763212,136
11.68763112,194
11.69763012,264
11.70762912,308
11.71762812,209
11.72762712,160
11.73762612,209
11.74762512,220
11.75762412,98
11.76762312,139
11.77762212,160
11.78762112,48
11.79762012,93
11.80761912,177
11.81761812,169
11.82761712,174
11.83761612,285
11.84761512,251
11.85761412,195
11.86761312,68
11.87761212,144
11.88761112,96
11.89761012,122
11.90760912,198
11.91760812,213
11.92760712,172
11.93760612,128
11.94760512,128
11.95760412,208
11.96760312,161
11.97760212,128
11.98760112,46
11.99760012,78
12.00759912,144
12.01759812,147
12.02759712,182
12.03759612,239
12.04759512,194
12.05759412,144
12.06759312,119
12.07759212,154
12.08759112,148
12.09759012,46
12.10758912,73
12.11758812,171
12.12758712,49
12.13758612,37
12.14758512,44
12.15758412,89
12.16758312,183
12.17758212,75
12.18758112,150
12.19758012,246
12.20757912,133
12.21757812,163
12.22757712,196
12.23757612,178
12.24757512,105
12.25757412,91
12.26757312,121
12.27757212,201
12.28757112,104
12.29757012,141
12.30756912,122
12.31756812,12
12.32756712,12
12.33756612,107
12.34756512,261
12.35756412,184
12.36756312,75
12.37756212,219
12.38756112,147
12.39756012,113
12.40755912,114
12.41755812,64
12.42755712,52
12.43755612,101
12.44755512,116
12.45755412,194
12.46755312,122
12.47755212,174
12.48755112,159
12.49755012,115
12.50754912,211
12.51754812,204
12.52754712,80
12.53754612,130
12.54754512,83
12.55754412,150
12.56754312,165
12.57754212,194
12.58754112,90
12.59754012,77
12.60753912,120
12.61753812,143
12.62753712,123
12.63753612,140
12.64753512,166
12.65753412,125
12.66753312,179
12.67753212,0
12.68753112,110
12.69753012,211
12.70752912,127
12.71752812,234
12.72752712,259
12.73752612,106
12.74752512,104
12.75752412,212
12.76752312,204
12.77752212,34
12.78752112,66
12.79752012,147
12.80751912,127
12.81751812,240
12.82751712,71
12.83751612,155
12.84751512,153
12.85751412,28
12.86751312,192
12.87751212,43
12.88751112,159
12.89751012,144
12.90750912,102
12.91750812,145
12.92750712,175
12.93750612,127
12.94750512,20
12.95750412,138
12.96750312,49
12.97750212,93
12.98750112,178
12.99750012,160
13.00749912,230
13.01749812,140
13.02749712,127
13.03749612,156
13.04749512,179
13.05749412,200
13.06749312,201
13.07749212,135
13.08749112,190
13.09749012,211
13.10748912,204
13.11748812,221
13.12748712,164
