en,counts
0.00879912,304934
0.01879812,289995
0.02879712,208209
0.03879612,103654
0.04879512,2465
0.05879412,-64636
0.06879312,-95928
0.07879212,-97693
0.08879112,-81606
0.09879012,-60263
0.10878912,-39915
0.11878812,-24273
0.12878712,-13714
0.13878612,-7242
0.14878512,-3589
0.15878412,-1671
0.16878312,-733
0.17878212,-304
0.18878112,-116
0.19878012,-43
0.20877912,-15
0.21877812,-2
0.22877712,-3
0.23877612,0
0.24877512,3
0.25877412,1
0.26877312,0
0.27877212,-2
0.28877112,0
0.29877012,-7
0.30876912,-12
0.31876812,-23
0.32876712,-36
0.33876612,-48
0.34876512,-63
0.35876412,-38
0.36876312,328
0.37876212,277
0.38876112,282
0.39876012,286
0.40875912,319
0.41875812,280
0.42875712,270
0.43875612,295
0.44875512,287
0.45875412,286
0.46875312,277
0.47875212,259
0.48875112,232
0.49875012,190
0.50874912,234
0.51874812,197
0.52874712,206
0.53874612,190
0.54874512,201
0.55874412,194
0.56874312,165
0.57874212,150
0.58874112,174
0.59874012,215
0.60873912,125
0.61873812,114
0.62873712,160
0.63873612,111
0.64873512,107
0.65873412,111
0.66873312,108
0.67873212,99
0.68873112,92
0.69873012,123
0.70872912,74
0.71872812,100
0.72872712,71
0.73872612,73
0.74872512,62
0.75872412,86
0.76872312,75
0.77872212,53
0.78872112,63
0.79872012,59
0.80871912,74
0.81871812,59
0.82871712,64
0.83871612,37
0.84871512,32
0.85871412,46
0.86871312,65
0.87871212,66
0.88871112,33
0.89871012,17
0.90870912,17
0.91870812,18
0.92870712,40
0.93870612,38
0.94870512,13
0.95870412,-14
0.96870312,11
0.97870212,29
0.98870112,41
0.99870012,3
1.00869912,40
1.01869812,47
1.02869712,30
1.03869612,47
1.04869512,27
1.05869412,38
1.06869312,32
1.07869212,23
1.08869112,12
1.09869012,18
1.10868912,28
1.11868812,-4
1.12868712,23
1.13868612,26
1.14868512,20
1.15868412,19
1.16868312,8
1.17868212,-11
1.18868112,35
1.19868012,23
1.20867912,0
1.21867812,17
1.22867712,25
1.23867612,26
1.24867512,16
1.25867412,3
1.26867312,3
1.27867212,11
1.28867112,12
1.29867012,25
1.30866912,16
1.31866812,5
1.32866712,9
1.33866612,15
1.34866512,10
1.35866412,10
1.36866312,13
1.37866212,-1
1.38866112,7
1.39866012,12
1.40865912,0
1.41865812,7
1.42865712,11
1.43865612,15
1.44865512,35
1.45865412,27
1.46865312,13
1.47865212,26
1.48865112,30
1.49865012,27
1.50864912,15
1.51864812,8
1.52864712,25
1.53864612,22
1.54864512,23
1.55864412,14
1.56864312,8
1.57864212,5
1.58864112,-5
1.59864012,-4
1.60863912,13
1.61863812,8
1.62863712,2
1.63863612,7
1.64863512,0
1.65863412,-15
1.66863312,-8
1.67863212,17
1.68863112,6
1.69863012,0
1.70862912,2
1.71862812,6
1.72862712,11
1.73862612,0
1.74862512,-3
1.75862412,17
1.76862312,15
1.77862212,24
1.78862112,22
1.79862012,9
1.80861912,21
1.81861812,19
1.82861712,6
1.83861612,18
1.84861512,12
1.85861412,3
1.86861312,10
1.87861212,10
1.88861112,-8
1.89861012,21
1.90860912,2
1.91860812,15
1.92860712,15
1.93860612,10
1.94860512,12
1.95860412,0
1.96860312,-1
1.97860212,-3
1.98860112,10
1.99860012,16
2.00859912,6
2.01859812,0
2.02859712,15
2.03859612,0
2.04859512,17
2.05859412,0
2.06859312,-7
2.07859212,-9
2.08859112,0
2.09859012,9
2.10858912,7
2.11858812,8
2.12858712,-7
2.13858612,4
2.14858512,11
2.15858412,7
2.16858312,8
2.17858212,5
2.18858112,22
2.19858012,-1
2.20857912,11
2.21857812,-1
2.22857712,1
2.23857612,-2
2.24857512,-5
2.25857412,4
2.26857312,9
2.27857212,2
2.28857112,-2
2.29857012,15
2.30856912,12
2.31856812,13
2.32856712,3
2.33856612,2
2.34856512,-2
2.35856412,-1
2.36856312,2
2.37856212,5
2.38856112,7
2.39856012,2
2.40855912,-5
2.41855812,-6
2.42855712,0
2.43855612,5
2.44855512,-3
2.45855412,-1
2.46855312,8
2.47855212,4
2.48855112,-1
2.49855012,-15
2.50854912,-15
2.51854812,-5
2.52854712,-11
2.53854612,-20
2.54854512,-19
2.55854412,-14
2.56854312,19
2.57854212,58
2.58854112,76
2.59854012,100
2.60853912,153
2.61853812,199
2.62853712,260
2.63853612,330
2.64853512,382
2.65853412,445
2.66853312,478
2.67853212,520
2.68853112,549
2.69853012,515
2.70852912,480
2.71852812,431
2.72852712,402
2.73852612,367
2.74852512,325
2.75852412,269
2.76852312,253
2.77852212,240
2.78852112,256
2.79852012,274
2.80851912,307
2.81851812,330
2.82851712,328
2.83851612,357
2.84851512,348
2.85851412,354
2.86851312,326
2.87851212,272
2.88851112,272
2.89851012,235
2.90850912,248
2.91850812,235
2.92850712,224
2.93850612,230
2.94850512,204
2.95850412,215
2.96850312,207
2.97850212,213
2.98850112,225
2.99850012,204
3.00849912,141
3.01849812,101
3.02849712,69
3.03849612,31
3.04849512,37
3.05849412,17
3.06849312,7
3.07849212,18
3.08849112,38
3.09849012,34
3.10848912,75
3.11848812,78
3.12848712,95
3.13848612,92
3.14848512,112
3.15848412,107
3.16848312,73
3.17848212,52
3.18848112,45
3.19848012,32
3.20847912,10
3.21847812,-7
3.22847712,0
3.23847612,12
3.24847512,-11
3.25847412,-30
3.26847312,-25
3.27847212,8
3.28847112,17
3.29847012,13
3.30846912,38
3.31846812,66
3.32846712,60
3.33846612,59
3.34846512,67
3.35846412,54
3.36846312,47
3.37846212,49
3.38846112,32
3.39846012,15
3.40845912,6
3.41845812,9
3.42845712,15
3.43845612,6
3.44845512,-4
3.45845412,-16
3.46845312,-3
3.47845212,4
3.48845112,-11
3.49845012,-9
3.50844912,0
3.51844812,12
3.52844712,-1
3.53844612,-2
3.54844512,0
3.55844412,4
3.56844312,12
3.57844212,10
3.58844112,21
3.59844012,63
3.60843912,82
3.61843812,83
3.62843712,117
3.63843612,148
3.64843512,186
3.65843412,221
3.66843312,234
3.67843212,279
3.68843112,299
3.69843012,270
3.70842912,273
3.71842812,290
3.72842712,257
3.73842612,193
3.74842512,157
3.75842412,117
3.76842312,89
3.77842212,72
3.78842112,41
3.79842012,15
3.80841912,-12
3.81841812,-20
3.82841712,2
3.83841612,1
3.84841512,-26
3.85841412,-7
3.86841312,6
3.87841212,6
3.88841112,11
3.89841012,-5
3.90840912,-3
3.91840812,7
3.92840712,2
3.93840612,0
3.94840512,5
3.95840412,22
3.96840312,32
3.97840212,40
3.98840112,78
3.99840012,84
4.00839912,63
4.01839812,81
4.02839712,61
4.03839612,50
4.04839512,41
4.05839412,50
4.06839312,42
4.07839212,27
4.08839112,41
4.09839012,23
4.10838912,-14
4.11838812,-17
4.12838712,5
4.13838612,8
4.14838512,-7
4.15838412,-7
4.16838312,0
4.17838212,5
4.18838112,2
4.19838012,14
4.20837912,9
4.21837812,-12
4.22837712,-1
4.23837612,2
4.24837512,-6
4.25837412,8
4.26837312,13
4.27837212,-1
4.28837112,-6
4.29837012,6
4.30836912,-1
4.31836812,-5
4.32836712,-2
4.33836612,8
4.34836512,11
4.35836412,20
4.36836312,22
4.37836212,5
4.38836112,-31
4.39836012,8
4.40835912,37
4.41835812,65
4.42835712,51
4.43835612,43
4.44835512,88
4.45835412,118
4.46835312,178
4.47835212,163
4.48835112,175
4.49835012,186
4.50834912,188
4.51834812,183
4.52834712,155
4.53834612,143
4.54834512,127
4.55834412,139
4.56834312,92
4.57834212,100
4.58834112,85
4.59834012,69
4.60833912,19
4.61833812,5
4.62833712,0
4.63833612,2
4.64833512,16
4.65833412,-9
4.66833312,0
4.67833212,1
4.68833112,-11
4.69833012,0
4.70832912,29
4.71832812,-5
4.72832712,-7
4.73832612,9
4.74832512,-15
4.75832412,-25
4.76832312,-24
4.77832212,0
4.78832112,16
4.79832012,-44
4.80831912,-17
4.81831812,46
4.82831712,36
4.83831612,123
4.84831512,142
4.85831412,241
4.86831312,341
4.87831212,414
4.88831112,513
4.89831012,690
4.90830912,769
4.91830812,902
4.92830712,1029
4.93830612,1096
4.94830512,1073
4.95830412,1156
4.96830312,1072
4.97830212,1057
4.98830112,946
4.99830012,815
5.00829912,686
5.01829812,490
5.02829712,402
5.03829612,281
5.04829512,199
5.05829412,111
5.06829312,-5
5.07829212,-11
5.08829112,-13
5.09829012,-22
5.10828912,-6
5.11828812,-13
5.12828712,-51
5.13828612,0
5.14828512,6
5.15828412,8
5.16828312,-9
5.17828212,4
5.18828112,-23
5.19828012,-1
5.20827912,-10
5.21827812,-3
5.22827712,15
5.23827612,9
5.24827512,19
5.25827412,-5
5.26827312,85
5.27827212,112
5.28827112,120
5.29827012,150
5.30826912,256
5.31826812,357
5.32826712,481
5.33826612,625
5.34826512,820
5.35826412,1023
5.36826312,1153
5.37826212,1257
5.38826112,1349
5.39826012,1447
5.40825912,1519
5.41825812,1571
5.42825712,1515
5.43825612,1474
5.44825512,1354
5.45825412,1216
5.46825312,1037
5.47825212,865
5.48825112,714
5.49825012,641
5.50824912,504
5.51824812,319
5.52824712,235
5.53824612,149
5.54824512,108
5.55824412,89
5.56824312,13
5.57824212,46
5.58824112,-10
5.59824012,-50
5.60823912,9
5.61823812,-4
5.62823712,-7
5.63823612,27
5.64823512,38
5.65823412,-20
5.66823312,-25
5.67823212,19
5.68823112,-10
5.69823012,-2
5.70822912,17
5.71822812,-55
5.72822712,-55
5.73822612,-1
5.74822512,30
5.75822412,64
5.76822312,118
5.77822212,183
5.78822112,236
5.79822012,335
5.80821912,478
5.81821812,619
5.82821712,800
5.83821612,898
5.84821512,1050
5.85821412,1269
5.86821312,1377
5.87821212,1464
5.88821112,1554
5.89821012,1581
5.90820912,1567
5.91820812,1467
5.92820712,1342
5.93820612,1293
5.94820512,1173
5.95820412,1030
5.96820312,906
5.97820212,786
5.98820112,602
5.99820012,522
6.00819912,405
6.01819812,222
6.02819712,143
6.03819612,98
6.04819512,70
6.05819412,53
6.06819312,9
6.07819212,-43
6.08819112,13
6.09819012,41
6.10818912,8
6.11818812,-7
6.12818712,-3
6.13818612,-20
6.14818512,6
6.15818412,-4
6.16818312,-26
6.17818212,-11
6.18818112,0
6.19818012,7
6.20817912,-33
6.21817812,-36
6.22817712,-27
6.23817612,0
6.24817512,89
6.25817412,153
6.26817312,213
6.27817212,324
6.28817112,392
6.29817012,431
6.30816912,473
6.31816812,677
6.32816712,920
6.33816612,1102
6.34816512,1278
6.35816412,1408
6.36816312,1516
6.37816212,1582
6.38816112,1667
6.39816012,1718
6.40815912,1764
6.41815812,1739
6.42815712,1606
6.43815612,1526
6.44815512,1420
6.45815412,1322
6.46815312,1109
6.47815212,954
6.48815112,826
6.49815012,627
6.50814912,561
6.51814812,502
6.52814712,373
6.53814612,303
6.54814512,275
6.55814412,212
6.56814312,108
6.57814212,32
6.58814112,84
6.59814012,-1
6.60813912,-84
6.61813812,9
6.62813712,7
6.63813612,11
6.64813512,16
6.65813412,11
6.66813312,35
6.67813212,46
6.68813112,-10
6.69813012,-35
6.70812912,0
6.71812812,0
6.72812712,-26
6.73812612,-57
6.74812512,-46
6.75812412,0
6.76812312,0
6.77812212,64
6.78812112,143
6.79812012,109
6.80811912,193
6.81811812,260
6.82811712,328
6.83811612,473
6.84811512,541
6.85811412,701
6.86811312,868
6.87811212,1008
6.88811112,1119
6.89811012,1267
6.90810912,1365
6.91810812,1360
6.92810712,1391
6.93810612,1468
6.94810512,1371
6.95810412,1316
6.96810312,1176
6.97810212,1025
6.98810112,984
6.99810012,896
7.00809912,748
7.01809812,620
7.02809712,572
7.03809612,489
7.04809512,342
7.05809412,325
7.06809312,265
7.07809212,288
7.08809112,282
7.09809012,185
7.10808912,108
7.11808812,19
7.12808712,29
7.13808612,91
7.14808512,43
7.15808412,-9
7.16808312,17
7.17808212,-21
7.18808112,-10
7.19808012,14
7.20807912,-58
7.21807812,-38
7.22807712,27
7.23807612,97
7.24807512,5
7.25807412,-13
7.26807312,-11
7.27807212,-53
7.28807112,-22
7.29807012,-1
7.30806912,32
7.31806812,-17
7.32806712,-27
7.33806612,102
7.34806512,193
7.35806412,249
7.36806312,300
7.37806212,369
7.38806112,525
7.39806012,665
7.40805912,824
7.41805812,922
7.42805712,966
7.43805612,1106
7.44805512,1282
7.45805412,1314
7.46805312,1348
7.47805212,1403
7.48805112,1303
7.49805012,1165
7.50804912,1086
7.51804812,1158
7.52804712,1004
7.53804612,768
7.54804512,595
7.55804412,556
7.56804312,497
7.57804212,396
7.58804112,361
7.59804012,235
7.60803912,253
7.61803812,193
7.62803712,111
7.63803612,156
7.64803512,116
7.65803412,155
7.66803312,114
7.67803212,61
7.68803112,88
7.69803012,55
7.70802912,38
7.71802812,42
7.72802712,58
7.73802612,-60
7.74802512,-77
7.75802412,30
7.76802312,81
7.77802212,-2
7.78802112,7
7.79802012,7
7.80801912,16
7.81801812,43
7.82801712,-50
7.83801612,-34
7.84801512,72
7.85801412,28
7.86801312,-67
7.87801212,-73
7.88801112,-98
7.89801012,42
7.90800912,145
7.91800812,207
7.92800712,282
7.93800612,267
7.94800512,371
7.95800412,500
7.96800312,602
7.97800212,721
7.98800112,874
7.99800012,985
8.00799912,1039
8.01799812,1058
8.02799712,1116
8.03799612,1141
8.04799512,1195
8.05799412,1156
8.06799312,1080
8.07799212,1104
8.08799112,986
8.09799012,852
8.10798912,774
8.11798812,654
8.12798712,631
8.13798612,571
8.14798512,488
8.15798412,339
8.16798312,150
8.17798212,138
8.18798112,225
8.19798012,196
8.20797912,164
8.21797812,166
8.22797712,114
8.23797612,6
8.24797512,27
8.25797412,73
8.26797312,61
8.27797212,91
8.28797112,162
8.29797012,165
8.30796912,97
8.31796812,117
8.32796712,109
8.33796612,49
8.34796512,78
8.35796412,28
8.36796312,17
8.37796212,156
8.38796112,171
8.39796012,63
8.40795912,25
8.41795812,9
8.42795712,-57
8.43795612,-91
8.44795512,8
8.45795412,19
8.46795312,30
8.47795212,105
8.48795112,208
8.49795012,339
8.50794912,403
8.51794812,465
8.52794712,683
8.53794612,874
8.54794512,998
8.55794412,1112
8.56794312,1400
8.57794212,1683
8.58794112,1836
8.59794012,2106
8.60793912,2230
8.61793812,2295
8.62793712,2392
8.63793612,2281
8.64793512,2183
8.65793412,2150
8.66793312,2008
8.67793212,1831
8.68793112,1598
8.69793012,1380
8.70792912,1153
8.71792812,991
8.72792712,843
8.73792612,654
8.74792512,528
8.75792412,297
8.76792312,205
8.77792212,279
8.78792112,83
8.79792012,-48
8.80791912,60
8.81791812,123
8.82791712,39
8.83791612,34
8.84791512,144
8.85791412,123
8.86791312,-21
8.87791212,32
8.88791112,65
8.89791012,-37
8.90790912,0
8.91790812,13
8.92790712,89
8.93790612,102
8.94790512,38
8.95790412,119
8.96790312,53
8.97790212,0
8.98790112,42
8.99790012,114
9.00789912,111
9.01789812,124
9.02789712,77
9.03789612,-34
9.04789512,11
9.05789412,50
9.06789312,2
9.07789212,19
9.08789112,42
9.09789012,-7
9.10788912,-67
9.11788812,-39
9.12788712,80
9.13788612,57
9.14788512,-36
9.15788412,23
9.16788312,48
9.17788212,73
9.18788112,88
9.19788012,75
9.20787912,71
9.21787812,78
9.22787712,102
9.23787612,56
9.24787512,-38
9.25787412,-32
9.26787312,74
9.27787212,110
9.28787112,101
9.29787012,106
9.30786912,69
9.31786812,135
9.32786712,201
9.33786612,123
9.34786512,94
9.35786412,49
9.36786312,83
9.37786212,115
9.38786112,93
9.39786012,126
9.40785912,103
9.41785812,44
9.42785712,163
9.43785612,289
9.44785512,181
9.45785412,107
9.46785312,159
9.47785212,157
9.48785112,155
9.49785012,251
9.50784912,300
9.51784812,277
9.52784712,260
9.53784612,317
9.54784512,299
9.55784412,312
9.56784312,378
9.57784212,423
9.58784112,348
9.59784012,385
9.60783912,448
9.61783812,302
9.62783712,294
9.63783612,276
9.64783512,226
9.65783412,285
9.66783312,296
9.67783212,176
9.68783112,219
9.69783012,291
9.70782912,205
9.71782812,189
9.72782712,140
9.73782612,99
9.74782512,82
9.75782412,21
9.76782312,86
9.77782212,80
9.78782112,119
9.79782012,135
9.80781912,52
9.81781812,25
9.82781712,3
9.83781612,80
9.84781512,35
9.85781412,-110
9.86781312,-75
9.87781212,47
9.88781112,79
9.89781012,67
9.90780912,125
9.91780812,113
9.92780712,23
9.93780612,41
9.94780512,79
9.95780412,35
9.96780312,21
9.97780212,70
9.98780112,82
9.99780012,115
10.00779912,132
10.01779812,85
10.02779712,78
10.03779612,136
10.04779512,139
10.05779412,105
10.06779312,61
10.07779212,21
10.08779112,29
10.09779012,118
10.10778912,106
10.11778812,-31
10.12778712,-38
10.13778612,26
10.14778512,6
10.15778412,48
10.16778312,103
10.17778212,33
10.18778112,54
10.19778012,83
10.20777912,-4
10.21777812,0
10.22777712,64
10.23777612,3
10.24777512,8
10.25777412,160
10.26777312,55
10.27777212,7
10.28777112,74
10.29777012,35
10.30776912,49
10.31776812,73
10.32776712,78
10.33776612,117
10.34776512,87
10.35776412,53
10.36776312,35
10.37776212,112
10.38776112,136
10.39776012,36
10.40775912,72
10.41775812,75
10.42775712,45
10.43775612,38
10.44775512,51
10.45775412,0
10.46775312,69
10.47775212,104
10.48775112,85
10.49775012,117
10.50774912,28
10.51774812,69
10.52774712,140
10.53774612,77
10.54774512,135
10.55774412,118
10.56774312,68
10.57774212,116
10.58774112,59
10.59774012,80
10.60773912,137
10.61773812,138
10.62773712,177
10.63773612,128
10.64773512,51
10.65773412,-14
10.66773312,-6
10.67773212,115
10.68773112,76
10.69773012,56
10.70772912,80
10.71772812,65
10.72772712,14
10.73772612,36
10.74772512,72
10.75772412,129
10.76772312,140
10.77772212,146
10.78772112,113
10.79772012,73
10.80771912,148
10.81771812,93
10.82771712,-42
10.83771612,-31
10.84771512,8
10.85771412,44
10.86771312,52
10.87771212,25
10.88771112,49
10.89771012,38
10.90770912,33
10.91770812,144
10.92770712,104
10.93770612,33
10.94770512,29
10.95770412,183
10.96770312,182
10.97770212,90
10.98770112,54
10.99770012,107
11.00769912,45
11.01769812,72
11.02769712,154
11.03769612,99
11.04769512,70
11.05769412,-15
11.06769312,4
11.07769212,13
11.08769112,87
11.09769012,178
11.10768912,155
11.11768812,157
11.12768712,159
11.13768612,50
11.14768512,64
11.15768412,101
11.16768312,55
11.17768212,24
11.18768112,47
11.19768012,74
11.20767912,0
11.21767812,-63
11.22767712,153
11.23767612,22
11.24767512,40
11.25767412,94
11.26767312,80
11.27767212,109
11.28767112,111
11.29767012,80
11.30766912,59
11.31766812,110
11.32766712,166
11.33766612,101
11.34766512,87
11.35766412,38
11.36766312,36
11.37766212,-18
11.38766112,49
11.39766012,25
11.40765912,28
11.41765812,72
11.42765712,-8
11.43765612,-45
11.44765512,39
11.45765412,44
11.46765312,35
11.47765212,16
11.48765112,129
11.49765012,130
11.50764912,73
11.51764812,92
11.52764712,91
11.53764612,67
11.54764512,138
11.55764412,82
11.56764312,-42
11.57764212,19
11.58764112,67
11.59764012,104
11.60763912,39
11.61763812,-30
11.62763712,55
11.63763612,82
11.64763512,11
11.65763412,-28
11.66763312,17
11.67763212,57
11.68763112,33
11.69763012,158
11.70762912,184
11.71762812,146
11.72762712,65
11.73762612,83
11.74762512,93
11.75762412,-40
11.76762312,-79
11.77762212,-58
11.78762112,48
11.79762012,169
11.80761912,94
11.81761812,12
11.82761712,-9
11.83761612,-35
11.84761512,75
11.85761412,39
11.86761312,11
11.87761212,23
11.88761112,34
11.89761012,7
11.90760912,39
11.91760812,61
11.92760712,92
11.93760612,-27
11.94760512,-4
11.95760412,75
11.96760312,116
11.97760212,70
11.98760112,-38
11.99760012,51
12.00759912,76
12.01759812,93
12.02759712,62
12.03759612,55
12.04759512,92
12.05759412,88
12.06759312,16
12.07759212,37
12.08759112,76
12.09759012,56
12.10758912,-4
12.11758812,27
12.12758712,50
12.13758612,68
12.14758512,185
12.15758412,108
12.16758312,132
12.17758212,36
12.18758112,29
12.19758012,43
12.20757912,72
12.21757812,77
12.22757712,-21
12.23757612,56
12.24757512,109
12.25757412,42
12.26757312,177
12.27757212,97
12.28757112,37
12.29757012,33
12.30756912,138
12.31756812,137
12.32756712,128
12.33756612,53
12.34756512,-43
12.35756412,-27
12.36756312,49
12.37756212,-47
12.38756112,31
12.39756012,69
12.40755912,-57
12.41755812,-4
12.42755712,26
12.43755612,22
12.44755512,116
12.45755412,-27
12.46755312,37
12.47755212,134
12.48755112,126
12.49755012,73
12.50754912,-2
12.51754812,42
12.52754712,112
12.53754612,122
12.54754512,106
12.55754412,23
12.56754312,30
12.57754212,110
12.58754112,76
12.59754012,25
12.60753912,-27
12.61753812,-4
12.62753712,107
12.63753612,131
12.64753512,-14
12.65753412,10
12.66753312,-60
12.67753212,0
12.68753112,9
12.69753012,86
12.70752912,67
12.71752812,-56
12.72752712,19
12.73752612,4
12.74752512,23
12.75752412,34
12.76752312,-8
12.77752212,26
12.78752112,10
12.79752012,69
12.80751912,115
12.81751812,150
12.82751712,99
12.83751612,2
12.84751512,-15
12.85751412,18
12.86751312,72
12.87751212,-44
12.88751112,109
12.89751012,96
12.90750912,11
12.91750812,143
12.92750712,136
12.93750612,141
12.94750512,78
12.95750412,136
12.96750312,41
12.97750212,23
12.98750112,59
12.99750012,64
13.00749912,33
13.01749812,149
13.02749712,143
13.03749612,38
13.04749512,79
13.05749412,30
13.06749312,2
13.07749212,26
13.08749112,41
13.09749012,26
13.10748912,-15
13.11748812,52
13.12748712,124
13.13748612,92
13.14748512,21
13.15748412,42
13.16748312,-37
13.17748212,15
13.18748112,37
13.19748012,1
13.20747912,114
13.21747812,82
13.22747712,73
13.23747612,-5
13.24747512,106
13.25747412,111
13.26747312,49
13.27747212,45
13.28747112,-36
13.29747012,83
13.30746912,-35
13.31746812,31
13.32746712,95
13.33746612,24
13.34746512,49
13.35746412,24
13.36746312,40
13.37746212,129
13.38746112,-22
13.39746012,44
13.40745912,14
13.41745812,36
13.42745712,115
13.43745612,70
13.44745512,121
13.45745412,-80
13.46745312,-55
13.47745212,53
13.48745112,98
13.49745012,111
13.50744912,128
13.51744812,19
13.52744712,14
13.53744612,104
13.54744512,-32
13.55744412,-117
